labels 1 16 8 2 5 21 14 12 9 7 13 26 6
1 0.415528 0.163105 0.255429 0.0154212 0.0212873 0.0563981 0.00683763 0.00257424 0.0260098 0.0111658 0.0151546 0.0100703 0.00101834
1 0.318347 0.13711 0.31428 0.0242705 0.0433597 0.063698 0.00995303 0.00370932 0.0250777 0.0272377 0.017054 0.0149023 0.00100048
8 0.00440126 0.279066 0.448596 0.141659 0.00271864 0.0158234 0.00265891 0.00417351 0.0160936 0.0717277 0.00727464 0.00450443 0.0013027
21 0.118491 0.216686 0.0832689 0.0131794 0.0744382 0.355039 0.00863535 0.00885997 0.0402305 0.0282701 0.0310953 0.01746 0.0043467
1 0.576079 0.0856547 0.111745 0.0118242 0.0244771 0.0491237 0.00548418 0.0058701 0.0821673 0.0218195 0.0160741 0.00809528 0.00158561
1 0.292047 0.128951 0.20796 0.0135366 0.0624012 0.112616 0.0116855 0.00535733 0.0551035 0.0167223 0.0284644 0.0633554 0.00179891
8 0.0553759 0.127211 0.578852 0.0109764 0.0144277 0.0512936 0.00647328 0.00460234 0.079428 0.0466961 0.0140352 0.00956318 0.00106563
16 0.0253855 0.429199 0.306505 0.0135977 0.0377736 0.140975 0.00189322 0.00165722 0.0162079 0.00626892 0.0130493 0.00666363 0.000824504
21 0.113727 0.187809 0.150521 0.0131266 0.0395982 0.359144 0.00884347 0.00519753 0.0617561 0.0310279 0.0112896 0.0157907 0.00216834
5 0.201696 0.114676 0.0772384 0.0106009 0.447598 0.0516602 0.00519156 0.00580773 0.0375571 0.0239651 0.0104417 0.0105069 0.00305968
16 0.238895 0.252409 0.164988 0.02487 0.056327 0.113294 0.0185399 0.00968561 0.033868 0.0427557 0.0298956 0.0112848 0.00318725
16 0.219518 0.264356 0.189593 0.0352594 0.0711926 0.0635479 0.00737945 0.00776867 0.0769474 0.0263075 0.0247097 0.0117896 0.00163039
1 0.52585 0.0702117 0.0917085 0.0182506 0.0403984 0.191568 0.00372852 0.00306602 0.0192661 0.00833928 0.0137549 0.0121567 0.00170076
8 0.0774448 0.0927657 0.599897 0.0147075 0.0252621 0.0552082 0.00663677 0.00494843 0.0623733 0.0345224 0.0150995 0.00978317 0.00135122
8 0.071049 0.0687797 0.588925 0.0205739 0.0213262 0.0474595 0.0061667 0.0118961 0.0916355 0.0426244 0.0134689 0.0145226 0.00157235
8 0.0925065 0.0629935 0.42162 0.0172543 0.0211998 0.0436814 0.015198 0.00751586 0.100768 0.189614 0.014842 0.0104302 0.00237702
8 0.0132214 0.371837 0.463411 0.00610615 0.00738164 0.0704155 0.00361857 0.00211498 0.0245908 0.0156841 0.013619 0.00698492 0.00101539
16 0.00482596 0.656873 0.232109 0.00270443 0.0031234 0.0606401 0.00150968 0.00132276 0.0066231 0.00856331 0.0185492 0.0022786 0.000876925
8 0.269673 0.123971 0.332455 0.0188273 0.038236 0.0913012 0.00779161 0.0050938 0.0515505 0.0294287 0.0185279 0.0121619 0.000982359
8 0.260262 0.1044 0.368631 0.0227934 0.0359344 0.0897052 0.0175037 0.00412294 0.0289941 0.0299981 0.0237518 0.0128683 0.00103562
1 0.51724 0.0560173 0.21958 0.01664 0.0696204 0.0621723 0.00495202 0.00161682 0.0248743 0.0141721 0.00392193 0.00804366 0.00114926
1 0.455984 0.0556895 0.11954 0.0187359 0.0592097 0.12167 0.00537616 0.00378366 0.0182249 0.0135982 0.00958906 0.115617 0.00298145
8 0.00357822 0.0930462 0.501135 0.0106804 0.00166781 0.0920743 0.00436919 0.00149655 0.25996 0.0139604 0.0117146 0.00528626 0.00103149
8 0.199612 0.110686 0.429405 0.0165688 0.0628395 0.0715539 0.00712079 0.00559556 0.0481311 0.0220659 0.012454 0.0125109 0.00145618
1 0.417123 0.116893 0.116341 0.0218062 0.042838 0.0812865 0.0141107 0.00670223 0.12433 0.0213171 0.021467 0.0131668 0.00261856
16 0.0167008 0.464138 0.358729 0.00912281 0.00692592 0.0616411 0.00251037 0.00183588 0.0489378 0.0157371 0.00781868 0.00519904 0.000703308
8 0.045946 0.0494337 0.678019 0.0141113 0.0163202 0.0515605 0.00665767 0.00769882 0.0719578 0.026961 0.0177961 0.0118382 0.00170011
1 0.307064 0.230663 0.211554 0.0150996 0.0470537 0.115631 0.0079364 0.00440712 0.0174331 0.0129166 0.0165751 0.0114472 0.0022195
8 0.0397008 0.0600875 0.721573 0.0142914 0.0196844 0.0550328 0.0070031 0.00472626 0.0320609 0.022319 0.0121247 0.00971174 0.00168447
8 0.0164422 0.0367975 0.712689 0.0662381 0.00581473 0.0373285 0.0117997 0.011006 0.0376159 0.0432494 0.0136532 0.00607787 0.00128824
16 0.0739818 0.519013 0.183839 0.0134046 0.019212 0.110429 0.00283816 0.0030966 0.0343939 0.0109203 0.0205311 0.00710116 0.00123938
16 0.019584 0.70267 0.128796 0.00677312 0.0242086 0.087854 0.000978153 0.000937262 0.00897273 0.00388604 0.00924693 0.0054041 0.000688132
1 0.584127 0.044928 0.0794816 0.0273141 0.04164 0.0602127 0.0109801 0.00487189 0.0723894 0.0554199 0.00673468 0.00992682 0.00197372
1 0.353819 0.122003 0.254315 0.0185034 0.0368862 0.0959446 0.00762636 0.00491615 0.0443251 0.0271029 0.0178855 0.0155837 0.00108947
16 0.0222221 0.550592 0.186682 0.00807264 0.00958912 0.135758 0.0139667 0.0121369 0.0213345 0.0133364 0.019994 0.00519409 0.00112164
1 0.266113 0.216221 0.212402 0.0165513 0.115467 0.0896442 0.00667656 0.00456692 0.0282267 0.0185331 0.0138972 0.0104394 0.0012618
13 0.0282156 0.162516 0.098848 0.0112754 0.0155013 0.10859 0.163011 0.0963412 0.0370037 0.0229826 0.239765 0.0111141 0.0048364
16 0.0509328 0.648991 0.140035 0.0143476 0.0223548 0.0742274 0.00309507 0.00280494 0.0124334 0.00971469 0.0128703 0.0071367 0.00105638
16 0.0623028 0.462702 0.125834 0.0100485 0.0998613 0.143562 0.00649485 0.0047809 0.0382685 0.0166293 0.01131 0.0163246 0.00188116
1 0.453858 0.0624581 0.205748 0.0114056 0.105515 0.101006 0.00337646 0.00218182 0.0211234 0.0158404 0.00587284 0.010327 0.00128751
21 0.0108845 0.127684 0.205752 0.0149245 0.0115566 0.466855 0.0115131 0.00219022 0.10643 0.0147911 0.0062844 0.0197789 0.00135566
16 0.0280058 0.799418 0.0533934 0.00569008 0.0216445 0.0567616 0.00367543 0.00238229 0.00802855 0.00561382 0.00945595 0.00489564 0.00103464
8 0.199115 0.123842 0.425246 0.0199386 0.0326584 0.0765424 0.0161772 0.00421897 0.0374474 0.0267358 0.0251699 0.0118166 0.00109136
8 0.199855 0.100262 0.40851 0.01805 0.0704021 0.0709 0.00798434 0.0053642 0.0600287 0.0274796 0.0169058 0.0122752 0.00198307
8 0.100263 0.0903265 0.548344 0.01688 0.0287355 0.083001 0.00956016 0.00566214 0.0553363 0.0237981 0.0226609 0.0139724 0.00145946
21 0.0118687 0.0988211 0.23028 0.00785725 0.0234439 0.543235 0.00987262 0.00399248 0.037858 0.0154533 0.00480938 0.0112416 0.00126652
1 0.407628 0.0893529 0.212567 0.0236771 0.0307633 0.0892293 0.0119344 0.00859766 0.0416376 0.0285648 0.0173817 0.0372427 0.00142348
8 0.031527 0.161173 0.545992 0.00894023 0.0520724 0.0348922 0.00587768 0.00357134 0.0912844 0.0465836 0.00603159 0.0105114 0.00154246
8 0.0851712 0.0786489 0.610367 0.0178731 0.0316504 0.0661164 0.00751621 0.00524112 0.0432971 0.0268189 0.0144335 0.0114946 0.00137169
8 0.117356 0.0594528 0.592211 0.0136875 0.0181416 0.0512995 0.00807499 0.00433538 0.0322695 0.0657609 0.0245189 0.0116376 0.00125436
8 0.0644148 0.222641 0.450443 0.0172755 0.0475401 0.0477181 0.00737364 0.00496068 0.0762331 0.0371046 0.0135007 0.0095239 0.00127082
8 0.0518561 0.0650074 0.576371 0.00931502 0.0301247 0.0480828 0.00668797 0.00491776 0.107674 0.0761063 0.0140382 0.00852224 0.00129702
8 0.102252 0.0951567 0.539335 0.0153723 0.0327188 0.0658278 0.00810988 0.00588308 0.0740573 0.0303651 0.018284 0.011183 0.00145552
1 0.707581 0.0340664 0.0866776 0.00777608 0.0498997 0.0454053 0.0029518 0.00433825 0.0181777 0.00569529 0.0295206 0.00662314 0.00128716
1 0.259874 0.128404 0.145085 0.0156233 0.114246 0.163552 0.00762611 0.00448179 0.059144 0.0209791 0.00663858 0.0702885 0.00405705
8 0.167206 0.174055 0.37222 0.017984 0.0321916 0.0978964 0.0082449 0.0058427 0.0447192 0.0262066 0.0393416 0.0119762 0.00211566
8 0.057923 0.114271 0.528091 0.0259133 0.0242547 0.0713658 0.00758104 0.00506454 0.0894483 0.0456486 0.0133456 0.0140882 0.00300533
21 0.0622255 0.216576 0.182785 0.0167282 0.0190204 0.244232 0.0207352 0.00658996 0.134158 0.0654966 0.0168656 0.0117984 0.00278849
8 0.0564492 0.136647 0.519699 0.0102998 0.050903 0.0489843 0.00608337 0.00333994 0.10734 0.0390098 0.00830214 0.011553 0.00138921
1 0.386762 0.0665436 0.165976 0.0170389 0.0735824 0.225114 0.00412087 0.00231513 0.0226967 0.016327 0.00826557 0.0101671 0.00109083
8 0.0404879 0.312929 0.421061 0.00628917 0.0133254 0.0623201 0.00542251 0.00434769 0.0279775 0.0149323 0.082195 0.00727846 0.0014344
8 0.206386 0.0872292 0.506717 0.0137012 0.0273025 0.0588917 0.00618187 0.00434864 0.0393413 0.0259034 0.0148318 0.00744052 0.0017249
1 0.51455 0.0379027 0.218272 0.00921835 0.0955918 0.038266 0.00775872 0.00636988 0.0236498 0.0208493 0.0184474 0.00782714 0.00129701
8 0.107452 0.0847272 0.47318 0.0413825 0.0842988 0.106167 0.00998371 0.00473111 0.0269486 0.033951 0.0105627 0.0136696 0.00294483
1 0.343523 0.0666677 0.181895 0.0180926 0.0599551 0.220386 0.00465876 0.00283795 0.0436826 0.0378208 0.00936296 0.00986771 0.00125066
8 0.269673 0.123971 0.332455 0.0188273 0.038236 0.0913012 0.00779161 0.0050938 0.0515505 0.0294287 0.0185279 0.0121619 0.000982359
5 0.0976433 0.220387 0.160599 0.0307059 0.25545 0.115902 0.0113984 0.0109573 0.0336749 0.0322274 0.0102961 0.0167088 0.00405
1 0.443134 0.113242 0.0858086 0.0130885 0.20893 0.0511851 0.00631516 0.00436504 0.0216087 0.0229519 0.010881 0.016747 0.00174292
8 0.183002 0.157808 0.27082 0.0373495 0.0609996 0.160516 0.0102256 0.00465601 0.0617621 0.0178551 0.0193468 0.0141104 0.00154969
8 0.045059 0.0876934 0.66255 0.0065874 0.0281405 0.0536362 0.00756914 0.00442382 0.0663384 0.0175932 0.0123134 0.00693847 0.00115701
8 0.0417333 0.0616359 0.75259 0.00416101 0.00684967 0.0181399 0.00307318 0.00364053 0.0526249 0.0334344 0.0171916 0.00397722 0.000948648
1 0.506164 0.0589378 0.144514 0.0129416 0.0227263 0.199591 0.00399492 0.00278493 0.0152105 0.0098788 0.0122914 0.00954327 0.00142148
16 0.0354533 0.673564 0.117637 0.0131576 0.0158461 0.0917106 0.0025179 0.00200653 0.0157434 0.00936704 0.0151605 0.00671601 0.00112064
8 0.227899 0.120649 0.350031 0.0189512 0.0378296 0.086744 0.00827102 0.00563922 0.0806783 0.0303202 0.0191903 0.0125846 0.0012121
21 0.0658529 0.0748052 0.239149 0.0154257 0.035 0.471227 0.00818645 0.00596429 0.0257598 0.022111 0.0165032 0.0178054 0.00220993
1 0.595912 0.0381287 0.153782 0.00784654 0.1064 0.0431134 0.00354594 0.00267543 0.0198873 0.0118851 0.00657486 0.00914253 0.00110701
8 0.133014 0.105255 0.465115 0.0403794 0.0149592 0.0922602 0.0265537 0.00449328 0.039659 0.0258857 0.036142 0.0147477 0.001536
8 0.0175189 0.0670476 0.714889 0.00813226 0.0305132 0.0116302 0.0120552 0.0027584 0.0977065 0.0187316 0.0119977 0.00573851 0.0012811
8 0.213018 0.122732 0.365342 0.0359144 0.0230773 0.0830508 0.0130618 0.00513665 0.0564931 0.0471117 0.0195496 0.0141218 0.00139031
8 0.27181 0.0949597 0.370566 0.027722 0.0630073 0.0818343 0.0101473 0.00563891 0.01554 0.0200209 0.0124807 0.0230728 0.00320031
1 0.473728 0.0243284 0.0575921 0.00636524 0.270799 0.119585 0.00687672 0.00301683 0.0120918 0.00528097 0.0108689 0.00795199 0.00151455
1 0.271703 0.16478 0.140556 0.0135992 0.168395 0.0740909 0.0133053 0.029203 0.0370263 0.0177043 0.051073 0.0142101 0.00435441
8 0.252923 0.15071 0.287166 0.0205784 0.0494809 0.12594 0.00882879 0.00429344 0.0441706 0.0308635 0.0107567 0.0132093 0.0010789
8 0.195826 0.107938 0.398714 0.0196495 0.0367288 0.139752 0.00597715 0.00484229 0.0428826 0.0141986 0.0212113 0.0111654 0.00111477
8 0.0695359 0.055044 0.606954 0.00850979 0.0327231 0.0218237 0.0059777 0.00526895 0.139877 0.0348905 0.010661 0.00755589 0.00117801
8 0.130508 0.085872 0.500833 0.0118412 0.0204881 0.0821541 0.00704148 0.0049655 0.0495582 0.0789036 0.0168228 0.00959003 0.00142188
1 0.633393 0.0582423 0.117169 0.0157839 0.033264 0.0713699 0.00550189 0.00357516 0.022341 0.0163942 0.0114259 0.0102568 0.00128319
21 0.088199 0.0695578 0.170597 0.0145108 0.0510007 0.498569 0.00764169 0.00745788 0.0321857 0.024403 0.0184615 0.0150398 0.00237615
16 0.0232275 0.598308 0.16636 0.0402404 0.00983816 0.0995796 0.00328796 0.00258714 0.0186518 0.0116352 0.0180718 0.00728213 0.000930025
8 0.0188185 0.0993543 0.583536 0.0102448 0.0105311 0.0585643 0.0225695 0.00558583 0.0939853 0.0333643 0.0442944 0.0175819 0.00156947
21 0.193958 0.0880465 0.218327 0.0113786 0.0894449 0.232224 0.00908409 0.00791818 0.0515502 0.011157 0.0649635 0.018408 0.00354129
1 0.271719 0.119636 0.111764 0.0227396 0.166331 0.182957 0.00955498 0.00737207 0.050023 0.0226811 0.0168588 0.014182 0.00418065
8 0.0382245 0.112946 0.600822 0.0113898 0.0232707 0.0762031 0.00784168 0.00789731 0.0541112 0.0253214 0.0294109 0.0106708 0.0018906
1 0.448733 0.116915 0.209771 0.00943867 0.0593509 0.0408383 0.00571296 0.00659936 0.0546971 0.0276968 0.00812993 0.0104422 0.00167512
16 0.0236675 0.55194 0.124775 0.0145887 0.0401581 0.185016 0.00240202 0.00190469 0.0141057 0.0143816 0.0148697 0.0111329 0.00105777
1 0.327213 0.105462 0.230636 0.0313886 0.0212553 0.0402432 0.00762857 0.0113513 0.112144 0.0684993 0.0297009 0.0108948 0.00358427
5 0.140985 0.103973 0.0380386 0.013293 0.573775 0.0611078 0.00762203 0.00489336 0.0110563 0.0121363 0.011005 0.0177631 0.00435194
1 0.565999 0.111451 0.126983 0.010833 0.0333775 0.0585083 0.0037046 0.00518838 0.0286157 0.0172583 0.0196373 0.0171122 0.00133172
8 0.121742 0.191787 0.401785 0.0179018 0.0261599 0.0871334 0.00830388 0.00563577 0.0494318 0.0438716 0.0322231 0.0125229 0.00150219
8 0.0540463 0.189815 0.509829 0.0126867 0.0144753 0.0491239 0.00736709 0.00351182 0.076043 0.0487199 0.022779 0.0103845 0.00121907
8 0.114283 0.154713 0.422694 0.0151807 0.0473249 0.0698082 0.00865458 0.00682718 0.0459498 0.0376754 0.0615317 0.0135007 0.00185728
8 0.0123683 0.0591862 0.764261 0.00436465 0.0165935 0.0174618 0.00327829 0.0034608 0.0712325 0.0367926 0.00394159 0.0061491 0.000910255
16 0.00882863 0.460729 0.0381808 0.0173201 0.00917516 0.425718 0.00439293 0.00156259 0.00758176 0.00444556 0.0140048 0.0070243 0.00103617
8 0.206612 0.15244 0.411012 0.0237205 0.046724 0.0644046 0.0105385 0.00406667 0.0229373 0.0272497 0.0145647 0.0142489 0.00148184
8 0.0307241 0.0333512 0.554599 0.0133954 0.0524292 0.118463 0.00825889 0.00735811 0.135046 0.0210627 0.0164797 0.00696086 0.00187139
8 0.225448 0.1221 0.375563 0.0191451 0.0362729 0.0897186 0.00805669 0.00542697 0.0469878 0.0390609 0.0188982 0.0121642 0.00115759
8 0.25807 0.113819 0.352639 0.0184797 0.0358216 0.0729277 0.0079859 0.0054451 0.0741839 0.0288865 0.0183107 0.0122396 0.00119193
16 0.0544753 0.49614 0.226576 0.0161241 0.0179522 0.122352 0.00270045 0.00215982 0.0187425 0.0152956 0.0184483 0.00812003 0.000913256
2 0.165838 0.107861 0.197451 0.260335 0.0444839 0.0464922 0.0200744 0.0162843 0.0543386 0.0416802 0.023211 0.0173403 0.00461077
16 0.082311 0.537649 0.185909 0.0176796 0.0228521 0.0753814 0.00860636 0.00366168 0.0240128 0.0229709 0.00788754 0.00980376 0.00127503
8 0.0845098 0.0866702 0.618464 0.0176686 0.0236452 0.0467639 0.00835288 0.00473557 0.038502 0.0325105 0.0243565 0.0123256 0.0014949
